Nov. 15, 2016   10:23:11
Cyclic Voltammetry
File: c:\users\public\desktop\studentdata\fall 2016\alena\group b\cv_cn_0,075.txt
Data Source:  Experiment
Instrument Model:  CHI630E
Header: Sample CN Conc : 5e-3M 
Note: 

Init E (V) = 0.5
High E (V) = 0.5
Low E (V) = 0
Init P/N = N
Scan Rate (V/s) = 0.075
Segment = 2
Sample Interval (V) = 0.001
Quiet Time (sec) = 2
Sensitivity (A/V) = 1e-5

Segment 1:
Ep = 0.220V
ip = 2.395e-5A
Ah = 2.075e-5C

Segment 2:
Ep = 0.286V
ip = -2.250e-5A
Ah = -1.897e-5C

Potential/V	Current/A

0.500	-8.561e-7
0.499	-7.555e-7
0.498	-7.268e-7
0.497	-7.099e-7
0.496	-6.973e-7
0.495	-6.833e-7
0.494	-6.725e-7
0.493	-6.636e-7
0.492	-6.536e-7
0.491	-6.463e-7
0.490	-6.368e-7
0.489	-6.277e-7
0.488	-6.216e-7
0.487	-6.133e-7
0.486	-6.075e-7
0.485	-5.999e-7
0.484	-5.914e-7
0.483	-5.869e-7
0.482	-5.803e-7
0.481	-5.743e-7
0.480	-5.682e-7
0.479	-5.607e-7
0.478	-5.563e-7
0.477	-5.513e-7
0.476	-5.449e-7
0.475	-5.391e-7
0.474	-5.325e-7
0.473	-5.276e-7
0.472	-5.235e-7
0.471	-5.175e-7
0.470	-5.121e-7
0.469	-5.060e-7
0.468	-5.004e-7
0.467	-4.978e-7
0.466	-4.919e-7
0.465	-4.860e-7
0.464	-4.805e-7
0.463	-4.749e-7
0.462	-4.716e-7
0.461	-4.667e-7
0.460	-4.599e-7
0.459	-4.561e-7
0.458	-4.511e-7
0.457	-4.464e-7
0.456	-4.427e-7
0.455	-4.361e-7
0.454	-4.313e-7
0.453	-4.267e-7
0.452	-4.215e-7
0.451	-4.185e-7
0.450	-4.114e-7
0.449	-4.059e-7
0.448	-4.022e-7
0.447	-3.980e-7
0.446	-3.935e-7
0.445	-3.875e-7
0.444	-3.811e-7
0.443	-3.775e-7
0.442	-3.737e-7
0.441	-3.697e-7
0.440	-3.644e-7
0.439	-3.572e-7
0.438	-3.535e-7
0.437	-3.488e-7
0.436	-3.430e-7
0.435	-3.378e-7
0.434	-3.315e-7
0.433	-3.260e-7
0.432	-3.222e-7
0.431	-3.163e-7
0.430	-3.104e-7
0.429	-3.038e-7
0.428	-2.975e-7
0.427	-2.942e-7
0.426	-2.876e-7
0.425	-2.802e-7
0.424	-2.746e-7
0.423	-2.679e-7
0.422	-2.627e-7
0.421	-2.567e-7
0.420	-2.474e-7
0.419	-2.419e-7
0.418	-2.355e-7
0.417	-2.297e-7
0.416	-2.240e-7
0.415	-2.143e-7
0.414	-2.074e-7
0.413	-2.002e-7
0.412	-1.928e-7
0.411	-1.865e-7
0.410	-1.752e-7
0.409	-1.660e-7
0.408	-1.606e-7
0.407	-1.523e-7
0.406	-1.445e-7
0.405	-1.337e-7
0.404	-1.231e-7
0.403	-1.169e-7
0.402	-1.071e-7
0.401	-9.720e-8
0.400	-8.685e-8
0.399	-7.546e-8
0.398	-6.584e-8
0.397	-5.562e-8
0.396	-4.349e-8
0.395	-3.327e-8
0.394	-1.918e-8
0.393	-7.975e-9
0.392	1.905e-9
0.391	1.703e-8
0.390	3.097e-8
0.389	4.478e-8
0.388	6.073e-8
0.387	7.286e-8
0.386	8.802e-8
0.385	1.039e-7
0.384	1.216e-7
0.383	1.364e-7
0.382	1.527e-7
0.381	1.693e-7
0.380	1.898e-7
0.379	2.053e-7
0.378	2.238e-7
0.377	2.438e-7
0.376	2.643e-7
0.375	2.889e-7
0.374	3.070e-7
0.373	3.305e-7
0.372	3.545e-7
0.371	3.756e-7
0.370	4.035e-7
0.369	4.297e-7
0.368	4.522e-7
0.367	4.827e-7
0.366	5.090e-7
0.365	5.399e-7
0.364	5.719e-7
0.363	5.990e-7
0.362	6.320e-7
0.361	6.654e-7
0.360	7.008e-7
0.359	7.380e-7
0.358	7.753e-7
0.357	8.115e-7
0.356	8.549e-7
0.355	8.940e-7
0.354	9.385e-7
0.353	9.810e-7
0.352	1.023e-6
0.351	1.073e-6
0.350	1.122e-6
0.349	1.172e-6
0.348	1.219e-6
0.347	1.271e-6
0.346	1.329e-6
0.345	1.387e-6
0.344	1.445e-6
0.343	1.509e-6
0.342	1.569e-6
0.341	1.638e-6
0.340	1.708e-6
0.339	1.776e-6
0.338	1.849e-6
0.337	1.925e-6
0.336	2.000e-6
0.335	2.085e-6
0.334	2.163e-6
0.333	2.250e-6
0.332	2.340e-6
0.331	2.429e-6
0.330	2.527e-6
0.329	2.623e-6
0.328	2.720e-6
0.327	2.826e-6
0.326	2.930e-6
0.325	3.042e-6
0.324	3.157e-6
0.323	3.271e-6
0.322	3.394e-6
0.321	3.519e-6
0.320	3.647e-6
0.319	3.781e-6
0.318	3.912e-6
0.317	4.057e-6
0.316	4.202e-6
0.315	4.346e-6
0.314	4.500e-6
0.313	4.653e-6
0.312	4.818e-6
0.311	4.988e-6
0.310	5.156e-6
0.309	5.330e-6
0.308	5.508e-6
0.307	5.687e-6
0.306	5.880e-6
0.305	6.072e-6
0.304	6.272e-6
0.303	6.476e-6
0.302	6.675e-6
0.301	6.886e-6
0.300	7.110e-6
0.299	7.328e-6
0.298	7.553e-6
0.297	7.776e-6
0.296	8.012e-6
0.295	8.266e-6
0.294	8.506e-6
0.293	8.746e-6
0.292	9.007e-6
0.291	9.260e-6
0.290	9.528e-6
0.289	9.790e-6
0.288	1.006e-5
0.287	1.034e-5
0.286	1.061e-5
0.285	1.090e-5
0.284	1.119e-5
0.283	1.147e-5
0.282	1.177e-5
0.281	1.206e-5
0.280	1.235e-5
0.279	1.266e-5
0.278	1.295e-5
0.277	1.326e-5
0.276	1.358e-5
0.275	1.388e-5
0.274	1.418e-5
0.273	1.449e-5
0.272	1.480e-5
0.271	1.512e-5
0.270	1.542e-5
0.269	1.574e-5
0.268	1.605e-5
0.267	1.636e-5
0.266	1.667e-5
0.265	1.697e-5
0.264	1.727e-5
0.263	1.758e-5
0.262	1.787e-5
0.261	1.818e-5
0.260	1.847e-5
0.259	1.875e-5
0.258	1.905e-5
0.257	1.933e-5
0.256	1.961e-5
0.255	1.989e-5
0.254	2.014e-5
0.253	2.040e-5
0.252	2.066e-5
0.251	2.090e-5
0.250	2.115e-5
0.249	2.138e-5
0.248	2.161e-5
0.247	2.183e-5
0.246	2.204e-5
0.245	2.226e-5
0.244	2.245e-5
0.243	2.264e-5
0.242	2.283e-5
0.241	2.300e-5
0.240	2.316e-5
0.239	2.332e-5
0.238	2.346e-5
0.237	2.361e-5
0.236	2.374e-5
0.235	2.386e-5
0.234	2.398e-5
0.233	2.408e-5
0.232	2.418e-5
0.231	2.427e-5
0.230	2.434e-5
0.229	2.441e-5
0.228	2.447e-5
0.227	2.453e-5
0.226	2.458e-5
0.225	2.461e-5
0.224	2.463e-5
0.223	2.467e-5
0.222	2.466e-5
0.221	2.468e-5
0.220	2.468e-5
0.219	2.466e-5
0.218	2.465e-5
0.217	2.463e-5
0.216	2.460e-5
0.215	2.457e-5
0.214	2.452e-5
0.213	2.448e-5
0.212	2.443e-5
0.211	2.436e-5
0.210	2.430e-5
0.209	2.423e-5
0.208	2.414e-5
0.207	2.406e-5
0.206	2.397e-5
0.205	2.388e-5
0.204	2.379e-5
0.203	2.367e-5
0.202	2.357e-5
0.201	2.346e-5
0.200	2.335e-5
0.199	2.324e-5
0.198	2.312e-5
0.197	2.302e-5
0.196	2.290e-5
0.195	2.278e-5
0.194	2.267e-5
0.193	2.255e-5
0.192	2.243e-5
0.191	2.232e-5
0.190	2.219e-5
0.189	2.207e-5
0.188	2.195e-5
0.187	2.183e-5
0.186	2.171e-5
0.185	2.159e-5
0.184	2.147e-5
0.183	2.135e-5
0.182	2.122e-5
0.181	2.111e-5
0.180	2.099e-5
0.179	2.087e-5
0.178	2.075e-5
0.177	2.063e-5
0.176	2.051e-5
0.175	2.039e-5
0.174	2.027e-5
0.173	2.016e-5
0.172	2.005e-5
0.171	1.993e-5
0.170	1.982e-5
0.169	1.971e-5
0.168	1.960e-5
0.167	1.949e-5
0.166	1.938e-5
0.165	1.927e-5
0.164	1.917e-5
0.163	1.906e-5
0.162	1.896e-5
0.161	1.885e-5
0.160	1.875e-5
0.159	1.865e-5
0.158	1.855e-5
0.157	1.845e-5
0.156	1.836e-5
0.155	1.826e-5
0.154	1.817e-5
0.153	1.807e-5
0.152	1.798e-5
0.151	1.789e-5
0.150	1.779e-5
0.149	1.771e-5
0.148	1.762e-5
0.147	1.753e-5
0.146	1.745e-5
0.145	1.736e-5
0.144	1.728e-5
0.143	1.720e-5
0.142	1.712e-5
0.141	1.704e-5
0.140	1.696e-5
0.139	1.688e-5
0.138	1.681e-5
0.137	1.673e-5
0.136	1.666e-5
0.135	1.659e-5
0.134	1.651e-5
0.133	1.644e-5
0.132	1.637e-5
0.131	1.630e-5
0.130	1.623e-5
0.129	1.617e-5
0.128	1.610e-5
0.127	1.604e-5
0.126	1.597e-5
0.125	1.591e-5
0.124	1.585e-5
0.123	1.578e-5
0.122	1.572e-5
0.121	1.566e-5
0.120	1.560e-5
0.119	1.555e-5
0.118	1.549e-5
0.117	1.543e-5
0.116	1.538e-5
0.115	1.532e-5
0.114	1.527e-5
0.113	1.522e-5
0.112	1.516e-5
0.111	1.511e-5
0.110	1.506e-5
0.109	1.501e-5
0.108	1.496e-5
0.107	1.491e-5
0.106	1.486e-5
0.105	1.482e-5
0.104	1.477e-5
0.103	1.472e-5
0.102	1.468e-5
0.101	1.463e-5
0.100	1.459e-5
0.099	1.455e-5
0.098	1.450e-5
0.097	1.446e-5
0.096	1.442e-5
0.095	1.438e-5
0.094	1.434e-5
0.093	1.430e-5
0.092	1.426e-5
0.091	1.422e-5
0.090	1.418e-5
0.089	1.414e-5
0.088	1.410e-5
0.087	1.407e-5
0.086	1.403e-5
0.085	1.400e-5
0.084	1.396e-5
0.083	1.392e-5
0.082	1.389e-5
0.081	1.386e-5
0.080	1.382e-5
0.079	1.380e-5
0.078	1.376e-5
0.077	1.373e-5
0.076	1.370e-5
0.075	1.367e-5
0.074	1.364e-5
0.073	1.361e-5
0.072	1.358e-5
0.071	1.355e-5
0.070	1.352e-5
0.069	1.349e-5
0.068	1.346e-5
0.067	1.344e-5
0.066	1.341e-5
0.065	1.338e-5
0.064	1.335e-5
0.063	1.333e-5
0.062	1.330e-5
0.061	1.328e-5
0.060	1.325e-5
0.059	1.323e-5
0.058	1.320e-5
0.057	1.318e-5
0.056	1.316e-5
0.055	1.313e-5
0.054	1.311e-5
0.053	1.309e-5
0.052	1.307e-5
0.051	1.304e-5
0.050	1.302e-5
0.049	1.300e-5
0.048	1.298e-5
0.047	1.296e-5
0.046	1.294e-5
0.045	1.292e-5
0.044	1.290e-5
0.043	1.288e-5
0.042	1.286e-5
0.041	1.284e-5
0.040	1.283e-5
0.039	1.281e-5
0.038	1.279e-5
0.037	1.277e-5
0.036	1.276e-5
0.035	1.274e-5
0.034	1.272e-5
0.033	1.270e-5
0.032	1.269e-5
0.031	1.267e-5
0.030	1.266e-5
0.029	1.264e-5
0.028	1.263e-5
0.027	1.261e-5
0.026	1.260e-5
0.025	1.258e-5
0.024	1.257e-5
0.023	1.255e-5
0.022	1.254e-5
0.021	1.253e-5
0.020	1.252e-5
0.019	1.250e-5
0.018	1.249e-5
0.017	1.248e-5
0.016	1.246e-5
0.015	1.245e-5
0.014	1.244e-5
0.013	1.243e-5
0.012	1.242e-5
0.011	1.241e-5
0.010	1.240e-5
0.009	1.239e-5
0.008	1.238e-5
0.007	1.237e-5
0.006	1.236e-5
0.005	1.235e-5
0.004	1.234e-5
0.003	1.233e-5
0.002	1.232e-5
0.001	1.231e-5
0.000	1.215e-5
0.001	1.188e-5
0.002	1.177e-5
0.003	1.170e-5
0.004	1.164e-5
0.005	1.159e-5
0.006	1.153e-5
0.007	1.148e-5
0.008	1.144e-5
0.009	1.139e-5
0.010	1.135e-5
0.011	1.131e-5
0.012	1.126e-5
0.013	1.122e-5
0.014	1.119e-5
0.015	1.115e-5
0.016	1.111e-5
0.017	1.107e-5
0.018	1.103e-5
0.019	1.100e-5
0.020	1.096e-5
0.021	1.093e-5
0.022	1.090e-5
0.023	1.086e-5
0.024	1.083e-5
0.025	1.080e-5
0.026	1.077e-5
0.027	1.073e-5
0.028	1.070e-5
0.029	1.067e-5
0.030	1.064e-5
0.031	1.061e-5
0.032	1.058e-5
0.033	1.055e-5
0.034	1.052e-5
0.035	1.050e-5
0.036	1.047e-5
0.037	1.044e-5
0.038	1.041e-5
0.039	1.038e-5
0.040	1.036e-5
0.041	1.033e-5
0.042	1.030e-5
0.043	1.027e-5
0.044	1.025e-5
0.045	1.022e-5
0.046	1.019e-5
0.047	1.017e-5
0.048	1.014e-5
0.049	1.012e-5
0.050	1.009e-5
0.051	1.007e-5
0.052	1.004e-5
0.053	1.002e-5
0.054	9.990e-6
0.055	9.966e-6
0.056	9.943e-6
0.057	9.917e-6
0.058	9.893e-6
0.059	9.870e-6
0.060	9.845e-6
0.061	9.822e-6
0.062	9.798e-6
0.063	9.773e-6
0.064	9.751e-6
0.065	9.727e-6
0.066	9.704e-6
0.067	9.681e-6
0.068	9.657e-6
0.069	9.635e-6
0.070	9.613e-6
0.071	9.590e-6
0.072	9.568e-6
0.073	9.544e-6
0.074	9.521e-6
0.075	9.500e-6
0.076	9.476e-6
0.077	9.453e-6
0.078	9.430e-6
0.079	9.407e-6
0.080	9.386e-6
0.081	9.365e-6
0.082	9.341e-6
0.083	9.319e-6
0.084	9.295e-6
0.085	9.275e-6
0.086	9.254e-6
0.087	9.231e-6
0.088	9.208e-6
0.089	9.185e-6
0.090	9.164e-6
0.091	9.143e-6
0.092	9.118e-6
0.093	9.097e-6
0.094	9.075e-6
0.095	9.052e-6
0.096	9.033e-6
0.097	9.008e-6
0.098	8.985e-6
0.099	8.962e-6
0.100	8.940e-6
0.101	8.918e-6
0.102	8.893e-6
0.103	8.868e-6
0.104	8.848e-6
0.105	8.823e-6
0.106	8.801e-6
0.107	8.777e-6
0.108	8.749e-6
0.109	8.728e-6
0.110	8.702e-6
0.111	8.677e-6
0.112	8.653e-6
0.113	8.625e-6
0.114	8.601e-6
0.115	8.577e-6
0.116	8.550e-6
0.117	8.524e-6
0.118	8.497e-6
0.119	8.469e-6
0.120	8.444e-6
0.121	8.416e-6
0.122	8.387e-6
0.123	8.360e-6
0.124	8.329e-6
0.125	8.301e-6
0.126	8.272e-6
0.127	8.241e-6
0.128	8.210e-6
0.129	8.178e-6
0.130	8.148e-6
0.131	8.116e-6
0.132	8.082e-6
0.133	8.049e-6
0.134	8.013e-6
0.135	7.979e-6
0.136	7.945e-6
0.137	7.906e-6
0.138	7.868e-6
0.139	7.831e-6
0.140	7.791e-6
0.141	7.755e-6
0.142	7.711e-6
0.143	7.669e-6
0.144	7.628e-6
0.145	7.584e-6
0.146	7.541e-6
0.147	7.496e-6
0.148	7.448e-6
0.149	7.403e-6
0.150	7.352e-6
0.151	7.303e-6
0.152	7.249e-6
0.153	7.196e-6
0.154	7.142e-6
0.155	7.085e-6
0.156	7.027e-6
0.157	6.968e-6
0.158	6.906e-6
0.159	6.842e-6
0.160	6.783e-6
0.161	6.715e-6
0.162	6.648e-6
0.163	6.575e-6
0.164	6.505e-6
0.165	6.432e-6
0.166	6.355e-6
0.167	6.275e-6
0.168	6.196e-6
0.169	6.111e-6
0.170	6.029e-6
0.171	5.942e-6
0.172	5.849e-6
0.173	5.756e-6
0.174	5.659e-6
0.175	5.561e-6
0.176	5.461e-6
0.177	5.352e-6
0.178	5.248e-6
0.179	5.137e-6
0.180	5.022e-6
0.181	4.908e-6
0.182	4.784e-6
0.183	4.658e-6
0.184	4.534e-6
0.185	4.400e-6
0.186	4.269e-6
0.187	4.129e-6
0.188	3.983e-6
0.189	3.840e-6
0.190	3.688e-6
0.191	3.532e-6
0.192	3.373e-6
0.193	3.207e-6
0.194	3.042e-6
0.195	2.870e-6
0.196	2.692e-6
0.197	2.514e-6
0.198	2.325e-6
0.199	2.134e-6
0.200	1.943e-6
0.201	1.738e-6
0.202	1.531e-6
0.203	1.324e-6
0.204	1.109e-6
0.205	8.822e-7
0.206	6.574e-7
0.207	4.267e-7
0.208	1.986e-7
0.209	-4.283e-8
0.210	-2.844e-7
0.211	-5.318e-7
0.212	-7.925e-7
0.213	-1.045e-6
0.214	-1.310e-6
0.215	-1.580e-6
0.216	-1.846e-6
0.217	-2.130e-6
0.218	-2.410e-6
0.219	-2.695e-6
0.220	-2.990e-6
0.221	-3.275e-6
0.222	-3.576e-6
0.223	-3.877e-6
0.224	-4.177e-6
0.225	-4.502e-6
0.226	-4.807e-6
0.227	-5.117e-6
0.228	-5.424e-6
0.229	-5.729e-6
0.230	-6.053e-6
0.231	-6.388e-6
0.232	-6.702e-6
0.233	-7.044e-6
0.234	-7.360e-6
0.235	-7.682e-6
0.236	-8.013e-6
0.237	-8.330e-6
0.238	-8.649e-6
0.239	-8.972e-6
0.240	-9.295e-6
0.241	-9.624e-6
0.242	-9.922e-6
0.243	-1.025e-5
0.244	-1.057e-5
0.245	-1.087e-5
0.246	-1.118e-5
0.247	-1.149e-5
0.248	-1.177e-5
0.249	-1.207e-5
0.250	-1.235e-5
0.251	-1.264e-5
0.252	-1.293e-5
0.253	-1.319e-5
0.254	-1.346e-5
0.255	-1.372e-5
0.256	-1.398e-5
0.257	-1.424e-5
0.258	-1.447e-5
0.259	-1.470e-5
0.260	-1.493e-5
0.261	-1.514e-5
0.262	-1.535e-5
0.263	-1.555e-5
0.264	-1.574e-5
0.265	-1.593e-5
0.266	-1.610e-5
0.267	-1.627e-5
0.268	-1.643e-5
0.269	-1.657e-5
0.270	-1.672e-5
0.271	-1.684e-5
0.272	-1.696e-5
0.273	-1.708e-5
0.274	-1.717e-5
0.275	-1.725e-5
0.276	-1.735e-5
0.277	-1.742e-5
0.278	-1.750e-5
0.279	-1.755e-5
0.280	-1.760e-5
0.281	-1.766e-5
0.282	-1.769e-5
0.283	-1.771e-5
0.284	-1.773e-5
0.285	-1.773e-5
0.286	-1.773e-5
0.287	-1.773e-5
0.288	-1.771e-5
0.289	-1.769e-5
0.290	-1.767e-5
0.291	-1.764e-5
0.292	-1.760e-5
0.293	-1.755e-5
0.294	-1.750e-5
0.295	-1.745e-5
0.296	-1.738e-5
0.297	-1.733e-5
0.298	-1.725e-5
0.299	-1.717e-5
0.300	-1.710e-5
0.301	-1.701e-5
0.302	-1.692e-5
0.303	-1.683e-5
0.304	-1.674e-5
0.305	-1.664e-5
0.306	-1.654e-5
0.307	-1.645e-5
0.308	-1.634e-5
0.309	-1.623e-5
0.310	-1.613e-5
0.311	-1.602e-5
0.312	-1.590e-5
0.313	-1.579e-5
0.314	-1.567e-5
0.315	-1.556e-5
0.316	-1.544e-5
0.317	-1.532e-5
0.318	-1.521e-5
0.319	-1.509e-5
0.320	-1.496e-5
0.321	-1.485e-5
0.322	-1.473e-5
0.323	-1.461e-5
0.324	-1.449e-5
0.325	-1.437e-5
0.326	-1.425e-5
0.327	-1.413e-5
0.328	-1.401e-5
0.329	-1.390e-5
0.330	-1.378e-5
0.331	-1.366e-5
0.332	-1.355e-5
0.333	-1.343e-5
0.334	-1.332e-5
0.335	-1.320e-5
0.336	-1.308e-5
0.337	-1.298e-5
0.338	-1.287e-5
0.339	-1.275e-5
0.340	-1.265e-5
0.341	-1.253e-5
0.342	-1.243e-5
0.343	-1.232e-5
0.344	-1.222e-5
0.345	-1.211e-5
0.346	-1.201e-5
0.347	-1.191e-5
0.348	-1.181e-5
0.349	-1.171e-5
0.350	-1.161e-5
0.351	-1.151e-5
0.352	-1.142e-5
0.353	-1.133e-5
0.354	-1.123e-5
0.355	-1.114e-5
0.356	-1.105e-5
0.357	-1.095e-5
0.358	-1.087e-5
0.359	-1.078e-5
0.360	-1.069e-5
0.361	-1.061e-5
0.362	-1.052e-5
0.363	-1.044e-5
0.364	-1.036e-5
0.365	-1.027e-5
0.366	-1.019e-5
0.367	-1.012e-5
0.368	-1.004e-5
0.369	-9.961e-6
0.370	-9.884e-6
0.371	-9.810e-6
0.372	-9.738e-6
0.373	-9.665e-6
0.374	-9.595e-6
0.375	-9.524e-6
0.376	-9.452e-6
0.377	-9.384e-6
0.378	-9.316e-6
0.379	-9.248e-6
0.380	-9.183e-6
0.381	-9.116e-6
0.382	-9.054e-6
0.383	-8.991e-6
0.384	-8.927e-6
0.385	-8.866e-6
0.386	-8.805e-6
0.387	-8.745e-6
0.388	-8.688e-6
0.389	-8.628e-6
0.390	-8.569e-6
0.391	-8.513e-6
0.392	-8.454e-6
0.393	-8.403e-6
0.394	-8.347e-6
0.395	-8.292e-6
0.396	-8.240e-6
0.397	-8.190e-6
0.398	-8.139e-6
0.399	-8.089e-6
0.400	-8.037e-6
0.401	-7.987e-6
0.402	-7.939e-6
0.403	-7.890e-6
0.404	-7.842e-6
0.405	-7.793e-6
0.406	-7.746e-6
0.407	-7.702e-6
0.408	-7.654e-6
0.409	-7.613e-6
0.410	-7.569e-6
0.411	-7.523e-6
0.412	-7.480e-6
0.413	-7.438e-6
0.414	-7.395e-6
0.415	-7.354e-6
0.416	-7.311e-6
0.417	-7.273e-6
0.418	-7.233e-6
0.419	-7.192e-6
0.420	-7.154e-6
0.421	-7.113e-6
0.422	-7.076e-6
0.423	-7.039e-6
0.424	-6.999e-6
0.425	-6.963e-6
0.426	-6.925e-6
0.427	-6.889e-6
0.428	-6.856e-6
0.429	-6.820e-6
0.430	-6.784e-6
0.431	-6.750e-6
0.432	-6.715e-6
0.433	-6.683e-6
0.434	-6.652e-6
0.435	-6.617e-6
0.436	-6.585e-6
0.437	-6.552e-6
0.438	-6.521e-6
0.439	-6.491e-6
0.440	-6.457e-6
0.441	-6.427e-6
0.442	-6.397e-6
0.443	-6.367e-6
0.444	-6.338e-6
0.445	-6.307e-6
0.446	-6.277e-6
0.447	-6.248e-6
0.448	-6.219e-6
0.449	-6.191e-6
0.450	-6.162e-6
0.451	-6.134e-6
0.452	-6.108e-6
0.453	-6.080e-6
0.454	-6.055e-6
0.455	-6.028e-6
0.456	-5.999e-6
0.457	-5.975e-6
0.458	-5.949e-6
0.459	-5.923e-6
0.460	-5.898e-6
0.461	-5.872e-6
0.462	-5.849e-6
0.463	-5.825e-6
0.464	-5.800e-6
0.465	-5.776e-6
0.466	-5.751e-6
0.467	-5.727e-6
0.468	-5.705e-6
0.469	-5.681e-6
0.470	-5.659e-6
0.471	-5.636e-6
0.472	-5.613e-6
0.473	-5.592e-6
0.474	-5.571e-6
0.475	-5.547e-6
0.476	-5.526e-6
0.477	-5.504e-6
0.478	-5.484e-6
0.479	-5.463e-6
0.480	-5.439e-6
0.481	-5.419e-6
0.482	-5.399e-6
0.483	-5.379e-6
0.484	-5.360e-6
0.485	-5.338e-6
0.486	-5.318e-6
0.487	-5.301e-6
0.488	-5.280e-6
0.489	-5.263e-6
0.490	-5.243e-6
0.491	-5.223e-6
0.492	-5.205e-6
0.493	-5.187e-6
0.494	-5.170e-6
0.495	-5.152e-6
0.496	-5.131e-6
0.497	-5.116e-6
0.498	-5.099e-6
0.499	-5.083e-6
